 PENELOPE (v. 2018)  Material data file ...............
 Material: LiquidXenon                                                   
 Mass density = 2.89000000E+00 g/cm**3
 Number of elements in the molecule =  1
   atomic number = 54,  atoms/molecule = 1.00000000E+00
 Mean excitation energy = 4.82000000E+02 eV
 Number of oscillators = 17 (E/P inelastic model)
   1  4.00000000E+00  1.21300000E+01  1.86296712E+01  54  30
   2  2.00000000E+00  1.34300000E+01  1.97500441E+01  54  30
   3  2.00000000E+00  2.33900000E+01  3.36691386E+01  54  30
   4  6.00000000E+00  6.75000000E+01  9.64935208E+01  54  14
   5  4.00000000E+00  6.95000000E+01  9.92077070E+01  54  13
   6  4.00000000E+00  1.45500000E+02  2.07296509E+02  54  12
   7  2.00000000E+00  1.57000000E+02  2.23608377E+02  54  11
   8  2.00000000E+00  2.13200000E+02  3.03617756E+02  54  10
   9  6.00000000E+00  6.76400000E+02  9.63170703E+02  54   9
  10  4.00000000E+00  6.89000000E+02  9.81098855E+02  54   8
  11  4.00000000E+00  9.40600000E+02  1.33934798E+03  54   7
  12  2.00000000E+00  1.00210000E+03  1.42690879E+03  54   6
  13  2.00000000E+00  1.14870000E+03  1.63565291E+03  54   5
  14  4.00000000E+00  4.78730000E+03  6.81668809E+03  54   4
  15  2.00000000E+00  5.10720000E+03  7.27219501E+03  54   3
  16  2.00000000E+00  5.45320000E+03  7.76486778E+03  54   2
  17  2.00000000E+00  3.45650000E+04  4.92174506E+04  54   1
 Number of shells = 17 (Compton IA model)
   1  4.00000000E+00  1.21300000E+01  5.91820000E-01  54  30
   2  2.00000000E+00  1.34300000E+01  5.61818000E-01  54  30
   3  2.00000000E+00  2.33900000E+01  7.97232000E-01  54  30
   4  6.00000000E+00  6.75000000E+01  1.52918000E-01  54  14
   5  4.00000000E+00  6.95000000E+01  1.51052000E-01  54  13
   6  4.00000000E+00  1.45500000E+02  1.82380000E-01  54  12
   7  2.00000000E+00  1.57000000E+02  1.76372000E-01  54  11
   8  2.00000000E+00  2.13200000E+02  2.74079000E-01  54  10
   9  6.00000000E+00  6.76400000E+02  5.07266000E-02  54   9
  10  4.00000000E+00  6.89000000E+02  5.01444000E-02  54   8
  11  4.00000000E+00  9.40600000E+02  7.54195000E-02  54   7
  12  2.00000000E+00  1.00210000E+03  7.28759000E-02  54   6
  13  2.00000000E+00  1.14870000E+03  1.22884000E-01  54   5
  14  4.00000000E+00  4.78730000E+03  2.79112000E-02  54   4
  15  2.00000000E+00  5.10720000E+03  2.65455000E-02  54   3
  16  2.00000000E+00  5.45320000E+03  5.34591000E-02  54   2
  17  2.00000000E+00  3.45650000E+04  1.49342000E-02  54   1
 *** RELAX:  Z = 54,  no. of shells = 17,  no. of transitions =  779
   1 1s1/2 2  3.45650E+04  1.15000E+01  1.49342E-02
   2 2s1/2 2  5.45320E+03  2.00000E+00  5.34591E-02
   3 2p1/2 2  5.10720E+03  3.05000E+00  2.65455E-02
   4 2p3/2 4  4.78730E+03  2.82000E+00  2.79112E-02
   5 3s1/2 2  1.14870E+03  1.06000E+01  1.22884E-01
   6 3p1/2 2  1.00210E+03  3.50000E+00  7.28759E-02
   7 3p3/2 4  9.40600E+02  4.70000E+00  7.54195E-02
   8 3d3/2 4  6.89000E+02  6.00000E-01  5.01444E-02
   9 3d5/2 6  6.76400E+02  6.00000E-01  5.07266E-02
  10 4s1/2 2  2.13200E+02  2.60000E+00  2.74079E-01
  11 4p1/2 2  1.57000E+02  2.57052E+01  1.76372E-01
  12 4p3/2 4  1.45500E+02  3.19732E+01  1.82380E-01
  13 4d3/2 4  6.95000E+01  1.00000E-01  1.51052E-01
  14 4d5/2 6  6.75000E+01  8.00000E-02  1.52918E-01
  17 5s1/2 2  2.33900E+01  0.00000E+00  7.97232E-01
  18 5p1/2 2  1.34300E+01  0.00000E+00  5.61818E-01
  19 5p3/2 4  1.21300E+01  0.00000E+00  5.91820E-01
   1  3  0  2.55988E-01  2.94582E+04
   1  4  0  4.74077E-01  2.97788E+04
   1  6  0  4.45027E-02  3.35632E+04
   1  7  0  8.62775E-02  3.36242E+04
   1  8  0  4.38977E-04  3.38760E+04
   1  9  0  5.99496E-04  3.38886E+04
   1 11  0  9.33064E-03  3.43953E+04
   1 12  0  1.81979E-02  3.44080E+04
   1 13  0  8.18305E-05  3.44862E+04
   1 14  0  1.11539E-04  3.44882E+04
   1 18  0  9.56254E-04  3.45437E+04
   1 19  0  1.80819E-03  3.45450E+04
   1  2  2  8.66166E-03  2.37222E+04
   1  2  3  1.02644E-02  2.40352E+04
   1  2  4  1.23564E-02  2.43644E+04
   1  2  5  3.08562E-03  2.80171E+04
   1  2  6  1.95658E-03  2.81496E+04
   1  2  7  2.38363E-03  2.82125E+04
   1  2  8  1.53828E-04  2.84482E+04
   1  2  9  1.67791E-04  2.84616E+04
   1  2 10  6.64150E-04  2.89307E+04
   1  2 11  3.96230E-04  2.89784E+04
   1  2 12  4.79527E-04  2.89911E+04
   1  2 13  2.76823E-05  2.90693E+04
   1  2 14  2.98489E-05  2.90713E+04
   1  2 17  9.46053E-05  2.91155E+04
   1  2 18  4.09221E-05  2.91268E+04
   1  2 19  4.69406E-05  2.91281E+04
   1  3  3  1.25048E-03  2.43482E+04
   1  3  4  2.62988E-02  2.46774E+04
   1  3  5  1.51823E-03  2.83301E+04
   1  3  6  4.28008E-04  2.84626E+04
   1  3  7  4.24412E-03  2.85255E+04
   1  3  8  1.83434E-04  2.87612E+04
   1  3  9  6.15039E-04  2.87746E+04
   1  3 10  3.14624E-04  2.92437E+04
   1  3 11  8.49746E-05  2.92914E+04
   1  3 12  8.25682E-04  2.93041E+04
   1  3 13  3.24971E-05  2.93823E+04
   1  3 14  1.08087E-04  2.93843E+04
   1  3 17  4.45331E-05  2.94285E+04
   1  3 18  8.66599E-06  2.94398E+04
   1  3 19  8.06413E-05  2.94411E+04
   1  4  4  1.31388E-02  2.50066E+04
   1  4  5  1.78907E-03  2.86593E+04
   1  4  6  4.13904E-03  2.87918E+04
   1  4  7  4.35297E-03  2.88547E+04
   1  4  8  7.31324E-04  2.90904E+04
   1  4  9  6.73074E-04  2.91038E+04
   1  4 10  3.69038E-04  2.95729E+04
   1  4 11  8.09080E-04  2.96206E+04
   1  4 12  8.51687E-04  2.96333E+04
   1  4 13  1.29275E-04  2.97115E+04
   1  4 14  1.18682E-04  2.97135E+04
   1  4 17  5.22368E-05  2.97577E+04
   1  4 18  8.32919E-05  2.97690E+04
   1  4 19  8.32919E-05  2.97703E+04
   1  5  5  2.70593E-04  3.23120E+04
   1  5  6  2.92261E-04  3.24445E+04
   1  5  7  3.47861E-04  3.25074E+04
   1  5  8  2.11847E-05  3.27431E+04
   1  5  9  2.23884E-05  3.27565E+04
   1  5 10  1.16271E-04  3.32256E+04
   1  5 11  5.92216E-05  3.32733E+04
   1  5 12  7.00556E-05  3.32860E+04
   1  5 13  3.85184E-06  3.33642E+04
   1  5 14  4.09250E-06  3.33662E+04
   1  5 17  1.66113E-05  3.34104E+04
   1  5 18  6.01855E-06  3.34217E+04
   1  5 19  6.98139E-06  3.34230E+04
   1  6  6  3.51465E-05  3.25771E+04
   1  6  7  6.78846E-04  3.26400E+04
   1  6  8  2.28686E-05  3.28756E+04
   1  6  9  7.58282E-05  3.28890E+04
   1  6 10  6.06623E-05  3.33582E+04
   1  6 11  1.39611E-05  3.34058E+04
   1  6 12  1.32398E-04  3.34185E+04
   1  6 13  4.09224E-06  3.34967E+04
   1  6 14  1.34806E-05  3.34988E+04
   1  6 17  8.66606E-06  3.35429E+04
   1  6 18  1.44436E-06  3.35542E+04
   1  6 19  1.29992E-05  3.35556E+04
   1  7  7  3.61812E-04  3.27029E+04
   1  7  8  9.62873E-05  3.29385E+04
   1  7  9  8.64198E-05  3.29519E+04
   1  7 10  7.19762E-05  3.34211E+04
   1  7 11  1.33125E-04  3.34688E+04
   1  7 12  1.41782E-04  3.34815E+04
   1  7 13  1.70917E-05  3.35596E+04
   1  7 14  1.54066E-05  3.35617E+04
   1  7 17  1.01101E-05  3.36058E+04
   1  7 18  1.37213E-05  3.36171E+04
   1  7 19  1.37213E-05  3.36185E+04
   1  8  9  1.13060E-05  3.31876E+04
   1  8 10  4.42382E-06  3.36567E+04
   1  8 11  4.42382E-06  3.37044E+04
   1  8 12  1.84328E-05  3.37171E+04
   1  8 14  1.96617E-06  3.37973E+04
   1  8 17  7.37293E-07  3.38415E+04
   1  8 18  4.91529E-07  3.38527E+04
   1  8 19  1.72029E-06  3.38541E+04
   1  9  9  2.73182E-06  3.32010E+04
   1  9 10  4.71854E-06  3.36701E+04
   1  9 11  1.46525E-05  3.37178E+04
   1  9 12  1.66394E-05  3.37305E+04
   1  9 13  1.98682E-06  3.38086E+04
   1  9 14  9.93361E-07  3.38107E+04
   1  9 17  7.45035E-07  3.38549E+04
   1  9 18  1.49009E-06  3.38661E+04
   1  9 19  1.49009E-06  3.38675E+04
   1 10 10  1.26247E-05  3.41393E+04
   1 10 11  1.23819E-05  3.41869E+04
   1 10 12  1.45671E-05  3.41996E+04
   1 10 13  7.28344E-07  3.42778E+04
   1 10 14  7.28344E-07  3.42798E+04
   1 10 17  3.64173E-06  3.43240E+04
   1 10 18  1.21391E-06  3.43353E+04
   1 10 19  1.45671E-06  3.43367E+04
   1 11 11  1.42393E-06  3.42346E+04
   1 11 12  2.56306E-05  3.42473E+04
   1 11 13  7.11955E-07  3.43255E+04
   1 11 14  2.37328E-06  3.43275E+04
   1 11 17  1.66117E-06  3.43717E+04
   1 11 18  2.37328E-07  3.43830E+04
   1 11 19  2.61053E-06  3.43843E+04
   1 12 12  1.39612E-05  3.42600E+04
   1 12 13  3.12947E-06  3.43382E+04
   1 12 14  2.88873E-06  3.43402E+04
   1 12 17  2.16649E-06  3.43844E+04
   1 12 18  2.64799E-06  3.43957E+04
   1 12 19  2.64799E-06  3.43971E+04
   1 13 14  5.34297E-07  3.44184E+04
   1 13 19  5.34297E-07  3.44752E+04
   1 14 18  4.27857E-07  3.44759E+04
   1 14 19  4.27857E-07  3.44773E+04
   1 17 17  2.81545E-07  3.45088E+04
   1 17 18  2.81545E-07  3.45200E+04
   1 17 19  2.81545E-07  3.45214E+04
   1 18 19  3.41278E-07  3.45327E+04
   1 19 19  2.40729E-07  3.45341E+04
   2  3  0  1.98398E-05  3.13000E+02
   2  4  0  3.73327E-04  6.42200E+02
   2  6  0  1.38829E-02  4.45033E+03
   2  7  0  2.18758E-02  4.51203E+03
   2  8  0  2.06838E-04  4.76320E+03
   2  9  0  3.08777E-04  4.77580E+03
   2 11  0  2.99258E-03  5.25621E+03
   2 12  0  4.83886E-03  5.26892E+03
   2 13  0  2.51578E-05  5.34706E+03
   2 14  0  3.82137E-05  5.34912E+03
   2 18  0  3.40147E-04  5.40455E+03
   2 19  0  5.28266E-04  5.40594E+03
   2  3 10  5.69431E-02  1.04630E+02
   2  3 11  4.06576E-02  1.52310E+02
   2  3 12  5.15253E-02  1.65020E+02
   2  3 13  1.31854E-02  2.43160E+02
   2  3 14  2.18037E-02  2.45220E+02
   2  3 17  7.77756E-03  2.89390E+02
   2  3 18  3.96775E-03  3.00650E+02
   2  3 19  4.77790E-03  3.02040E+02
   2  4 10  7.43055E-02  4.33830E+02
   2  4 11  3.23640E-02  4.81510E+02
   2  4 12  6.09524E-02  4.94220E+02
   2  4 13  6.22297E-02  5.72360E+02
   2  4 14  8.00767E-02  5.74420E+02
   2  4 17  1.02309E-02  6.18590E+02
   2  4 18  3.22316E-03  6.29850E+02
   2  4 19  5.81492E-03  6.31240E+02
   2  5  5  1.34704E-02  3.17290E+03
   2  5  6  2.67210E-02  3.30543E+03
   2  5  7  4.93433E-02  3.36834E+03
   2  5  8  3.87315E-02  3.60399E+03
   2  5  9  5.46919E-02  3.61738E+03
   2  5 10  4.95078E-03  4.08653E+03
   2  5 11  5.29200E-03  4.13421E+03
   2  5 12  9.69018E-03  4.14692E+03
   2  5 13  5.94375E-03  4.22506E+03
   2  5 14  8.34214E-03  4.22712E+03
   2  5 17  6.89327E-04  4.27129E+03
   2  5 18  5.44942E-04  4.28255E+03
   2  5 19  9.47105E-04  4.28394E+03
   2  6  6  1.55808E-04  3.43796E+03
   2  6  7  9.80531E-04  3.50087E+03
   2  6  8  1.09226E-03  3.73652E+03
   2  6  9  1.43276E-02  3.74991E+03
   2  6 10  3.95236E-03  4.21906E+03
   2  6 11  3.26282E-05  4.26674E+03
   2  6 12  1.81912E-04  4.27945E+03
   2  6 13  1.68037E-04  4.35759E+03
   2  6 14  1.47329E-03  4.35965E+03
   2  6 17  5.26152E-04  4.40382E+03
   2  6 18  3.26282E-06  4.41508E+03
   2  6 19  1.79464E-05  4.41647E+03
   2  7  7  1.15513E-03  3.56378E+03
   2  7  8  9.88891E-03  3.79943E+03
   2  7  9  6.71326E-03  3.81282E+03
   2  7 10  7.29570E-03  4.28197E+03
   2  7 11  1.82737E-04  4.32965E+03
   2  7 12  3.46720E-04  4.34236E+03
   2  7 13  8.84304E-04  4.42050E+03
   2  7 14  6.19996E-04  4.42256E+03
   2  7 17  9.71613E-04  4.46673E+03
   2  7 18  1.87633E-05  4.47799E+03
   2  7 19  3.26303E-05  4.47938E+03
   2  8  8  2.11287E-03  4.03508E+03
   2  8  9  7.75065E-02  4.04847E+03
   2  8 10  5.42578E-03  4.51762E+03
   2  8 11  2.81438E-04  4.56530E+03
   2  8 12  1.96689E-03  4.57801E+03
   2  8 13  6.43642E-04  4.65615E+03
   2  8 14  8.78828E-03  4.65821E+03
   2  8 17  7.17055E-04  4.70238E+03
   2  8 18  3.01835E-05  4.71364E+03
   2  8 19  1.92525E-04  4.71503E+03
   2  9  9  2.17703E-02  4.06186E+03
   2  9 10  7.70643E-03  4.53101E+03
   2  9 11  2.59329E-03  4.57869E+03
   2  9 12  1.40068E-03  4.59140E+03
   2  9 13  8.70981E-03  4.66954E+03
   2  9 14  5.15306E-03  4.67160E+03
   2  9 17  1.01963E-03  4.71577E+03
   2  9 18  2.63493E-04  4.72703E+03
   2  9 19  1.37862E-04  4.72842E+03
   2 10 10  4.32375E-04  5.00016E+03
   2 10 11  7.84776E-04  5.04784E+03
   2 10 12  1.43573E-03  5.06055E+03
   2 10 13  8.30437E-04  5.13869E+03
   2 10 14  1.17056E-03  5.14075E+03
   2 10 17  1.19103E-04  5.18492E+03
   2 10 18  8.07632E-05  5.19618E+03
   2 10 19  1.40313E-04  5.19757E+03
   2 11 11  1.63148E-06  5.09552E+03
   2 11 12  3.42610E-05  5.10823E+03
   2 11 13  3.67101E-05  5.18637E+03
   2 11 14  2.74906E-04  5.18843E+03
   2 11 17  1.04424E-04  5.23260E+03
   2 11 19  3.26296E-06  5.24525E+03
   2 12 12  2.74199E-05  5.12094E+03
   2 12 13  1.95369E-04  5.19908E+03
   2 12 14  1.43096E-04  5.20114E+03
   2 12 17  2.00512E-04  5.24531E+03
   2 12 18  3.42744E-06  5.25657E+03
   2 12 19  5.14125E-06  5.25796E+03
   2 13 13  4.95404E-05  5.27722E+03
   2 13 14  1.11855E-03  5.27928E+03
   2 13 17  1.16462E-04  5.32345E+03
   2 13 18  4.34560E-06  5.33471E+03
   2 13 19  1.99905E-05  5.33610E+03
   2 14 14  3.50437E-04  5.28134E+03
   2 14 17  1.69423E-04  5.32551E+03
   2 14 18  3.03172E-05  5.33677E+03
   2 14 19  1.51580E-05  5.33816E+03
   2 17 17  7.76019E-06  5.36968E+03
   2 17 18  1.00891E-05  5.38094E+03
   2 17 19  1.78484E-05  5.38233E+03
   3  4  0  7.04308E-08  3.29200E+02
   3  5  0  4.02949E-03  3.95837E+03
   3  7  0  5.82469E-05  4.16620E+03
   3  8  0  7.49118E-02  4.41767E+03
   3 10  0  5.74889E-04  4.89553E+03
   3 12  0  7.20318E-06  4.95592E+03
   3 13  0  1.11830E-02  5.03406E+03
   3 17  0  6.89998E-05  5.08029E+03
   3 19  0  7.86878E-07  5.09294E+03
   3  4 10  1.18029E-02  1.20830E+02
   3  4 11  5.17412E-02  1.68510E+02
   3  4 12  1.78166E-02  1.81220E+02
   3  4 13  6.41393E-02  2.59360E+02
   3  4 14  2.38654E-02  2.61420E+02
   3  4 17  1.50864E-03  3.05590E+02
   3  4 18  5.09719E-03  3.16850E+02
   3  4 19  1.72846E-03  3.18240E+02
   3  5  5  1.06054E-03  2.85990E+03
   3  5  6  2.55320E-02  2.99243E+03
   3  5  7  2.44630E-03  3.05534E+03
   3  5  8  1.93866E-03  3.29099E+03
   3  5  9  3.44740E-03  3.30438E+03
   3  5 10  3.62792E-04  3.77353E+03
   3  5 11  3.49728E-03  3.82121E+03
   3  5 12  4.28047E-04  3.83392E+03
   3  5 13  2.14985E-04  3.91206E+03
   3  5 14  3.33025E-04  3.91412E+03
   3  5 17  4.99075E-05  3.95829E+03
   3  5 18  3.39753E-04  3.96955E+03
   3  5 19  4.12702E-05  3.97094E+03
   3  6  6  2.50355E-02  3.12496E+03
   3  6  7  7.82246E-02  3.18787E+03
   3  6  8  4.14630E-02  3.42352E+03
   3  6  9  7.09763E-02  3.43691E+03
   3  6 10  5.59516E-03  3.90606E+03
   3  6 11  8.52327E-03  3.95374E+03
   3  6 12  1.51001E-02  3.96645E+03
   3  6 13  6.34856E-03  4.04459E+03
   3  6 14  1.08434E-02  4.04665E+03
   3  6 17  7.98467E-04  4.09082E+03
   3  6 18  8.59909E-04  4.10208E+03
   3  6 19  1.47120E-03  4.10347E+03
   3  7  7  2.05088E-03  3.25078E+03
   3  7  8  4.88211E-02  3.48643E+03
   3  7  9  6.63360E-03  3.49982E+03
   3  7 10  4.60667E-04  3.96897E+03
   3  7 11  1.11101E-02  4.01665E+03
   3  7 12  6.70842E-04  4.02936E+03
   3  7 13  6.46296E-03  4.10750E+03
   3  7 14  8.20570E-04  4.10956E+03
   3  7 17  6.43017E-05  4.15373E+03
   3  7 18  1.08546E-03  4.16499E+03
   3  7 19  6.33423E-05  4.16638E+03
   3  8  8  4.44831E-02  3.72208E+03
   3  8  9  1.90970E-01  3.73547E+03
   3  8 10  4.34745E-04  4.20462E+03
   3  8 11  5.87078E-03  4.25230E+03
   3  8 12  8.90828E-03  4.26501E+03
   3  8 13  1.17156E-02  4.34315E+03
   3  8 14  2.68071E-02  4.34521E+03
   3  8 17  6.23823E-05  4.38938E+03
   3  8 18  5.76810E-04  4.40064E+03
   3  8 19  8.60891E-04  4.40203E+03
   3  9  9  9.10198E-03  3.74886E+03
   3  9 10  6.40165E-04  4.21801E+03
   3  9 11  8.99930E-03  4.26569E+03
   3  9 12  1.10941E-03  4.27840E+03
   3  9 13  2.14914E-02  4.35654E+03
   3  9 14  2.33408E-03  4.35860E+03
   3  9 17  8.92559E-05  4.40277E+03
   3  9 18  8.63778E-04  4.41403E+03
   3  9 19  1.05571E-04  4.41542E+03
   3 10 10  3.27322E-05  4.68716E+03
   3 10 11  8.20343E-04  4.73484E+03
   3 10 12  8.59216E-05  4.74755E+03
   3 10 13  5.01198E-05  4.82569E+03
   3 10 14  6.75094E-05  4.82775E+03
   3 10 17  9.20597E-06  4.87192E+03
   3 10 18  7.97825E-05  4.88318E+03
   3 10 19  8.18317E-06  4.88457E+03
   3 11 11  6.72093E-04  4.78252E+03
   3 11 12  2.07285E-03  4.79523E+03
   3 11 13  8.56570E-04  4.87337E+03
   3 11 14  1.33677E-03  4.87543E+03
   3 11 17  1.06605E-04  4.91960E+03
   3 11 18  1.34415E-04  4.93086E+03
   3 11 19  2.02088E-04  4.93225E+03
   3 12 12  5.68419E-05  4.80794E+03
   3 12 13  1.21422E-03  4.88608E+03
   3 12 14  1.44067E-04  4.88814E+03
   3 12 17  1.17613E-05  4.93231E+03
   3 12 18  2.14626E-04  4.94357E+03
   3 12 19  1.07805E-05  4.94496E+03
   3 13 13  8.05787E-04  4.96422E+03
   3 13 14  3.27573E-03  4.96628E+03
   3 13 17  7.08574E-06  5.01045E+03
   3 13 18  9.11071E-05  5.02171E+03
   3 13 19  1.21481E-04  5.02310E+03
   3 14 14  1.61273E-04  4.96834E+03
   3 14 17  9.24532E-06  5.01251E+03
   3 14 18  1.42790E-04  5.02377E+03
   3 14 19  1.43812E-05  5.02516E+03
   3 17 17  1.05031E-06  5.05668E+03
   3 17 18  1.15534E-05  5.06794E+03
   3 17 19  1.05031E-06  5.06933E+03
   3 18 18  9.11085E-06  5.07920E+03
   3 18 19  2.73341E-05  5.08059E+03
   4  5  0  7.27630E-03  3.63801E+03
   4  6  0  4.01710E-05  3.78470E+03
   4  7  0  3.74000E-05  3.84630E+03
   4  8  0  7.43320E-03  4.09738E+03
   4  9  0  6.58790E-02  4.11009E+03
   4 10  0  6.41050E-04  4.56633E+03
   4 11  0  3.53540E-06  4.61401E+03
   4 12  0  3.39230E-06  4.62672E+03
   4 13  0  1.08100E-03  4.70486E+03
   4 14  0  9.63999E-03  4.70692E+03
   4 17  0  9.02559E-05  4.75109E+03
   4 18  0  3.99850E-07  4.76235E+03
   4 19  0  3.69190E-07  4.76374E+03
   4  5  5  1.38459E-03  2.53070E+03
   4  5  6  9.64060E-04  2.66323E+03
   4  5  7  2.96214E-02  2.72614E+03
   4  5  8  2.89018E-03  2.96179E+03
   4  5  9  3.27309E-03  2.97518E+03
   4  5 10  4.74737E-04  3.44433E+03
   4  5 11  1.58591E-04  3.49201E+03
   4  5 12  4.05462E-03  3.50472E+03
   4  5 13  2.44153E-04  3.58286E+03
   4  5 14  2.55628E-04  3.58492E+03
   4  5 17  6.46908E-05  3.62909E+03
   4  5 18  1.56507E-05  3.64035E+03
   4  5 19  3.74579E-04  3.64174E+03
   4  6  6  3.16145E-04  2.79576E+03
   4  6  7  4.91920E-02  2.85867E+03
   4  6  8  3.16246E-03  3.09432E+03
   4  6  9  2.84558E-02  3.10771E+03
   4  6 10  1.77374E-04  3.57686E+03
   4  6 11  1.04335E-04  3.62454E+03
   4  6 12  6.96986E-03  3.63725E+03
   4  6 13  4.52813E-04  3.71539E+03
   4  6 14  3.55373E-03  3.71745E+03
   4  6 17  2.50415E-05  3.76162E+03
   4  6 18  1.04335E-05  3.77288E+03
   4  6 19  6.47945E-04  3.77427E+03
   4  7  7  6.89830E-02  2.92158E+03
   4  7  8  6.91441E-02  3.15723E+03
   4  7  9  1.03651E-01  3.17062E+03
   4  7 10  6.42509E-03  3.63977E+03
   4  7 11  9.36020E-03  3.68745E+03
   4  7 12  2.30447E-02  3.70016E+03
   4  7 13  1.02162E-02  3.77830E+03
   4  7 14  1.51275E-02  3.78036E+03
   4  7 17  9.16140E-04  3.82453E+03
   4  7 18  9.58901E-04  3.83579E+03
   4  7 19  2.20269E-03  3.83718E+03
   4  8  8  9.89602E-03  3.39288E+03
   4  8  9  1.90317E-01  3.40627E+03
   4  8 10  5.87458E-04  3.87542E+03
   4  8 11  5.99960E-04  3.92310E+03
   4  8 12  9.16519E-03  3.93581E+03
   4  8 13  2.60751E-03  4.01395E+03
   4  8 14  2.16801E-02  4.01601E+03
   4  8 17  8.24281E-05  4.06018E+03
   4  8 18  6.15604E-05  4.07144E+03
   4  8 19  8.43075E-04  4.07283E+03
   4  9  9  1.28990E-01  3.41966E+03
   4  9 10  7.05325E-04  3.88881E+03
   4  9 11  5.05429E-03  3.93649E+03
   4  9 12  1.52978E-02  3.94920E+03
   4  9 13  2.53349E-02  4.02734E+03
   4  9 14  3.25886E-02  4.02940E+03
   4  9 17  1.01206E-04  4.07357E+03
   4  9 18  5.12294E-04  4.08483E+03
   4  9 19  1.43576E-03  4.08622E+03
   4 10 10  4.38428E-05  4.35796E+03
   4 10 11  3.26012E-05  4.40564E+03
   4 10 12  9.49944E-04  4.41835E+03
   4 10 13  5.73327E-05  4.49649E+03
   4 10 14  6.29540E-05  4.49855E+03
   4 10 17  1.23663E-05  4.54272E+03
   4 10 18  3.37258E-06  4.55398E+03
   4 10 19  8.76855E-05  4.55537E+03
   4 11 11  8.02789E-06  4.45332E+03
   4 11 12  1.27441E-03  4.46603E+03
   4 11 13  8.12818E-05  4.54417E+03
   4 11 14  6.24155E-04  4.54623E+03
   4 11 17  4.01375E-06  4.59040E+03
   4 11 18  2.00687E-06  4.60166E+03
   4 11 19  1.18408E-04  4.60305E+03
   4 12 12  1.75771E-03  4.47874E+03
   4 12 13  1.27636E-03  4.55688E+03
   4 12 14  2.07905E-03  4.55894E+03
   4 12 17  1.18886E-04  4.60311E+03
   4 12 18  1.27731E-04  4.61437E+03
   4 12 19  3.34063E-04  4.61576E+03
   4 13 13  1.76674E-04  4.63502E+03
   4 13 14  3.11867E-03  4.63708E+03
   4 13 17  7.68140E-06  4.68125E+03
   4 13 18  8.77907E-06  4.69251E+03
   4 13 19  1.31689E-04  4.69390E+03
   4 14 14  2.27414E-03  4.63914E+03
   4 14 17  9.17935E-06  4.68331E+03
   4 14 18  7.22866E-05  4.69457E+03
   4 14 19  2.27192E-04  4.69596E+03
   4 17 17  1.74576E-06  4.72748E+03
   4 17 19  1.92042E-05  4.74013E+03
   4 18 19  1.56510E-05  4.75139E+03
   4 19 19  2.14940E-05  4.75278E+03
   5  6  0  1.26204E-05  1.32530E+02
   5  7  0  8.43362E-05  1.95440E+02
   5 11  0  2.27950E-04  9.61310E+02
   5 12  0  3.09248E-04  9.74020E+02
   5 18  0  2.84097E-05  1.10965E+03
   5 19  0  3.79478E-05  1.11104E+03
   5  6 13  8.98435E-02  6.26900E+01
   5  6 14  1.23229E-01  6.47500E+01
   5  6 17  9.08811E-03  1.08920E+02
   5  6 18  6.50251E-03  1.20180E+02
   5  6 19  1.08334E-02  1.21570E+02
   5  7 13  6.59116E-02  1.25600E+02
   5  7 14  9.62122E-02  1.27660E+02
   5  7 17  1.21415E-02  1.71830E+02
   5  7 18  9.05711E-03  1.83090E+02
   5  7 19  1.35936E-02  1.84480E+02
   5  8 10  3.60225E-02  2.22720E+02
   5  8 11  7.61524E-03  2.70400E+02
   5  8 12  5.98012E-03  2.83110E+02
   5  8 13  9.60553E-03  3.61250E+02
   5  8 14  1.17826E-02  3.63310E+02
   5  8 17  3.59419E-03  4.07480E+02
   5  8 18  6.33647E-04  4.18740E+02
   5  8 19  4.63705E-04  4.20130E+02
   5  9 10  5.26696E-02  2.36110E+02
   5  9 11  1.89730E-03  2.83790E+02
   5  9 12  1.49167E-02  2.96500E+02
   5  9 13  1.24389E-02  3.74640E+02
   5  9 14  1.95409E-02  3.76700E+02
   5  9 17  5.22473E-03  4.20870E+02
   5  9 18  1.46893E-04  4.32130E+02
   5  9 19  1.16445E-03  4.33520E+02
   5 10 10  8.51591E-03  7.05260E+02
   5 10 11  1.37313E-02  7.52940E+02
   5 10 12  2.52760E-02  7.65650E+02
   5 10 13  2.47403E-02  8.43790E+02
   5 10 14  3.60446E-02  8.45850E+02
   5 10 17  2.02363E-03  8.90020E+02
   5 10 18  1.39959E-03  9.01280E+02
   5 10 19  2.44753E-03  9.02670E+02
   5 11 11  7.60174E-04  8.00620E+02
   5 11 12  1.85598E-03  8.13330E+02
   5 11 13  1.09414E-03  8.91470E+02
   5 11 14  4.03762E-04  8.93530E+02
   5 11 17  1.29853E-03  9.37700E+02
   5 11 18  1.28774E-04  9.48960E+02
   5 11 19  1.45389E-04  9.50350E+02
   5 12 12  2.40546E-03  8.26040E+02
   5 12 13  1.03949E-03  9.04180E+02
   5 12 14  2.90518E-03  9.06240E+02
   5 12 17  2.31723E-03  9.50410E+02
   5 12 18  1.54806E-04  9.61670E+02
   5 12 19  3.97824E-04  9.63060E+02
   5 13 13  3.13120E-04  9.82320E+02
   5 13 14  1.11218E-03  9.84380E+02
   5 13 17  2.31403E-03  1.02855E+03
   5 13 18  8.55546E-05  1.03981E+03
   5 13 19  8.22293E-05  1.04120E+03
   5 14 14  7.44067E-04  9.86440E+02
   5 14 17  3.39165E-03  1.03061E+03
   5 14 18  3.00970E-05  1.04187E+03
   5 14 19  2.35758E-04  1.04326E+03
   5 17 17  8.60760E-05  1.07478E+03
   5 17 18  1.02014E-04  1.08604E+03
   5 17 19  1.78524E-04  1.08743E+03
   5 18 18  2.23235E-06  1.09730E+03
   5 18 19  5.58118E-06  1.09869E+03
   5 19 19  1.05390E-05  1.10008E+03
   6  8  0  4.23922E-04  2.98560E+02
   6 10  0  2.93474E-04  7.81100E+02
   6 13  0  1.10941E-03  9.19630E+02
   6 17  0  4.42907E-05  9.65860E+02
   6  7 18  6.75548E-03  5.05600E+01
   6  7 19  7.95812E-03  5.19500E+01
   6  8 10  1.26439E-01  9.01900E+01
   6  8 11  1.28225E-01  1.37870E+02
   6  8 12  1.87814E-01  1.50580E+02
   6  8 13  5.27275E-02  2.28720E+02
   6  8 14  5.66639E-02  2.30780E+02
   6  8 17  1.81619E-02  2.74950E+02
   6  8 18  1.15331E-02  2.86210E+02
   6  8 19  1.75443E-02  2.87600E+02
   6  9 10  2.16181E-02  1.03580E+02
   6  9 11  1.55228E-01  1.51260E+02
   6  9 12  1.62144E-02  1.63970E+02
   6  9 13  3.35803E-03  2.42110E+02
   6  9 14  6.97326E-03  2.44170E+02
   6  9 17  2.10220E-03  2.88340E+02
   6  9 18  1.17157E-02  2.99600E+02
   6  9 19  1.38477E-03  3.00990E+02
   6 10 10  7.11491E-04  5.72730E+02
   6 10 11  1.00712E-02  6.20410E+02
   6 10 12  1.64492E-03  6.33120E+02
   6 10 13  3.60604E-04  7.11260E+02
   6 10 14  1.05443E-03  7.13320E+02
   6 10 17  1.61142E-04  7.57490E+02
   6 10 18  7.26084E-04  7.68750E+02
   6 10 19  1.44113E-04  7.70140E+02
   6 11 11  7.18716E-03  6.68090E+02
   6 11 12  2.24402E-02  6.80800E+02
   6 11 13  1.91939E-02  7.58940E+02
   6 11 14  3.19327E-02  7.61000E+02
   6 11 17  1.43652E-03  8.05170E+02
   6 11 18  1.26701E-03  8.16430E+02
   6 11 19  2.16657E-03  8.17820E+02
   6 12 12  6.35024E-04  6.93510E+02
   6 12 13  1.98394E-03  7.71650E+02
   6 12 14  1.44210E-03  7.73710E+02
   6 12 17  1.71361E-04  8.17880E+02
   6 12 18  1.73954E-03  8.29140E+02
   6 12 19  1.04112E-04  8.30530E+02
   6 13 13  6.39249E-04  8.49790E+02
   6 13 14  1.60199E-03  8.51850E+02
   6 13 17  4.45985E-05  8.96020E+02
   6 13 18  1.33914E-03  9.07280E+02
   6 13 19  1.48662E-04  9.08670E+02
   6 14 14  2.04162E-04  8.53910E+02
   6 14 17  5.78418E-05  8.98080E+02
   6 14 18  1.18744E-03  9.09340E+02
   6 14 19  5.31492E-05  9.10730E+02
   6 17 17  7.24053E-06  9.42250E+02
   6 17 18  8.10945E-05  9.53510E+02
   6 17 19  1.11021E-05  9.54900E+02
   6 18 18  3.12454E-05  9.64770E+02
   6 18 19  9.30160E-05  9.66160E+02
   6 19 19  2.44933E-06  9.67550E+02
   7  8  0  2.21851E-05  2.35650E+02
   7  9  0  2.41335E-04  2.49040E+02
   7 10  0  3.66684E-04  7.18190E+02
   7 13  0  1.36958E-04  8.56720E+02
   7 14  0  1.12974E-03  8.58780E+02
   7 17  0  5.48100E-05  9.02950E+02
   7  8 11  1.79867E-02  7.49600E+01
   7  8 12  1.04918E-01  8.76700E+01
   7  8 13  1.29951E-02  1.65810E+02
   7  8 14  9.54389E-03  1.67870E+02
   7  8 17  2.91347E-03  2.12040E+02
   7  8 18  1.72128E-03  2.23300E+02
   7  8 19  8.10935E-03  2.24690E+02
   7  9 11  1.19367E-01  8.83500E+01
   7  9 12  2.34124E-01  1.01060E+02
   7  9 13  5.07807E-02  1.79200E+02
   7  9 14  8.44980E-02  1.81260E+02
   7  9 17  1.65062E-02  2.25430E+02
   7  9 18  1.15884E-02  2.36690E+02
   7  9 19  2.01376E-02  2.38080E+02
   7 10 10  8.03028E-04  5.09820E+02
   7 10 11  1.17422E-03  5.57500E+02
   7 10 12  1.70023E-02  5.70210E+02
   7 10 13  9.86782E-04  6.48350E+02
   7 10 14  1.07868E-03  6.50410E+02
   7 10 17  1.81922E-04  6.94580E+02
   7 10 18  1.01989E-04  7.05840E+02
   7 10 19  1.18526E-03  7.07230E+02
   7 11 11  1.90674E-04  6.05180E+02
   7 11 12  1.91487E-02  6.17890E+02
   7 11 13  5.25034E-04  6.96030E+02
   7 11 14  3.02399E-03  6.98090E+02
   7 11 17  1.19748E-04  7.42260E+02
   7 11 18  3.13178E-05  7.53520E+02
   7 11 19  1.34947E-03  7.54910E+02
   7 12 12  2.48295E-02  6.30600E+02
   7 12 13  3.10231E-02  7.08740E+02
   7 12 14  4.22075E-02  7.10800E+02
   7 12 17  2.09267E-03  7.54970E+02
   7 12 18  1.71438E-03  7.66230E+02
   7 12 19  4.14942E-03  7.67620E+02
   7 13 13  1.73248E-04  7.86880E+02
   7 13 14  2.00734E-03  7.88940E+02
   7 13 17  6.17858E-05  8.33110E+02
   7 13 18  2.42287E-05  8.44370E+02
   7 13 19  1.61491E-03  8.45760E+02
   7 14 14  9.72047E-04  7.91000E+02
   7 14 17  5.77792E-05  8.35170E+02
   7 14 18  1.14100E-04  8.46430E+02
   7 14 19  1.74981E-03  8.47820E+02
   7 17 17  6.23866E-06  8.79340E+02
   7 17 18  6.23866E-06  8.90600E+02
   7 17 19  9.25395E-05  8.91990E+02
   7 18 18  5.19899E-07  9.01860E+02
   7 18 19  7.69443E-05  9.03250E+02
   7 19 19  1.06347E-04  9.04640E+02
   8 11  0  1.78220E-03  5.30220E+02
   8 12  0  2.81619E-04  5.42930E+02
   8 18  0  1.93170E-04  6.78560E+02
   8 19  0  2.92809E-05  6.79950E+02
   8 10 10  3.20525E-05  2.74170E+02
   8 10 11  5.84296E-03  3.21850E+02
   8 10 12  4.72560E-03  3.34560E+02
   8 10 13  1.12367E-01  4.12700E+02
   8 10 14  1.60132E-02  4.14760E+02
   8 10 17  2.74744E-05  4.58930E+02
   8 10 18  4.71648E-04  4.70190E+02
   8 10 19  2.79329E-04  4.71580E+02
   8 11 11  1.85929E-03  3.69530E+02
   8 11 12  1.73555E-02  3.82240E+02
   8 11 13  8.96346E-02  4.60380E+02
   8 11 14  7.88559E-03  4.62440E+02
   8 11 17  4.12136E-04  5.06610E+02
   8 11 18  3.34284E-04  5.17870E+02
   8 11 19  1.26839E-03  5.19260E+02
   8 12 12  6.74057E-03  3.94950E+02
   8 12 13  1.98079E-01  4.73090E+02
   8 12 14  7.60596E-03  4.75150E+02
   8 12 17  4.12125E-04  5.19320E+02
   8 12 18  1.30510E-03  5.30580E+02
   8 12 19  9.57042E-04  5.31970E+02
   8 13 13  1.49771E-01  5.51230E+02
   8 13 14  3.07974E-01  5.53290E+02
   8 13 17  1.42057E-02  5.97460E+02
   8 13 18  9.07857E-03  6.08720E+02
   8 13 19  1.86393E-02  6.10110E+02
   8 14 14  5.08743E-03  5.55350E+02
   8 14 17  1.12651E-03  5.99520E+02
   8 14 18  5.44925E-04  6.10780E+02
   8 14 19  5.90719E-04  6.12170E+02
   8 17 18  3.92614E-05  6.54950E+02
   8 17 19  2.18115E-05  6.56340E+02
   8 18 18  9.01829E-06  6.66210E+02
   8 18 19  6.61355E-05  6.67600E+02
   8 19 19  3.41659E-05  6.68990E+02
   9 12  0  1.93632E-03  5.29540E+02
   9 19  0  2.01152E-04  6.66560E+02
   9 10 10  1.13937E-04  2.60780E+02
   9 10 11  2.52951E-03  3.08460E+02
   9 10 12  9.01947E-03  3.21170E+02
   9 10 13  1.19188E-02  3.99310E+02
   9 10 14  1.19627E-01  4.01370E+02
   9 10 17  3.64612E-05  4.45540E+02
   9 10 18  1.18499E-04  4.56800E+02
   9 10 19  6.38066E-04  4.58190E+02
   9 11 12  1.72470E-02  3.68850E+02
   9 11 13  1.31261E-03  4.46990E+02
   9 11 14  1.11266E-01  4.49050E+02
   9 11 17  1.91427E-04  4.93220E+02
   9 11 19  1.24424E-03  5.05870E+02
   9 12 12  1.29165E-02  3.81560E+02
   9 12 13  1.02452E-02  4.59700E+02
   9 12 14  1.83561E-01  4.61760E+02
   9 12 17  7.24691E-04  5.05930E+02
   9 12 18  1.22158E-03  5.17190E+02
   9 12 19  1.92336E-03  5.18580E+02
   9 13 13  2.08757E-03  5.37840E+02
   9 13 14  2.15467E-01  5.39900E+02
   9 13 17  8.29510E-04  5.84070E+02
   9 13 18  1.27618E-04  5.95330E+02
   9 13 19  7.11026E-04  5.96720E+02
   9 14 14  2.49282E-01  5.41960E+02
   9 14 17  1.47626E-02  5.86130E+02
   9 14 18  1.09521E-02  5.97390E+02
   9 14 19  1.75069E-02  5.98780E+02
   9 17 18  1.18340E-05  6.41560E+02
   9 17 19  7.10049E-05  6.42950E+02
   9 18 19  9.12910E-05  6.54210E+02
